89
89
89
89
89
89
86
150
150
214
214
214
22
11
11
11
11
43
75
75
75
75
11
43
43
75
75
75
43
43
75
43
75
75
107
171
235
43
197
201
209
217
221
213
197
181
177
177
169
165
161
157
161
161
161
161
161
161
165
161
149
141
157
135
134
133
132
129
125
119
114
109
105
102
98
95
94
93
93
93
93
92
93
93
94
94
94
95
96
97
97
98
97
98
98
99
99
99
99
100
100
101
101
100
101
101
102
102
102
102
103
104
105
104
102
102
103
104
104
105
104
107
109
111
111
111
112
116
118
119
117
112
110
109
108
107
105
102
102
102
102
101
101
101
101
101
100
98
95
97
113
154
209
253
251
201
140
92
74
73
83
91
96
95
96
95
95
95
96
97
97
100
101
101
100
103
104
106
106
107
108
110
111
111
113
116
117
118
121
123
125
126
128
131
132
134
134
135
135
134
132
128
126
122
118
113
106
103
100
97
93
92
91
90
90
90
91
92
92
91
92
93
94
95
94
96
97
98
98
97
97
98
99
100
101
100
101
100
101
102
101
101
102
102
103
103
102
103
103
103
103
103
104
104
104
105
105
104
105
106
108
109
110
113
114
116
118
117
117
114
112
109
110
109
107
104
103
103
103
103
103
104
104
104
103
100
98
97
107
134
182
236
255
236
179
122
85
74
81
90
97
100
99
98
98
98
100
101
102
103
102
103
104
105
106
106
107
108
109
110
111
111
113
115
117
119
120
121
123
125
128
130
130
132
133
134
135
136
134
133
130
127
123
117
114
109
104
100
97
94
93
93
92
91
91
91
92
94
94
94
93
94
94
96
96
95
96
97
97
96
97
97
97
97
97
98
98
97
97
98
99
100
99
100
101
101
100
100
101
101
100
100
101
102
102
100
102
103
103
103
104
106
107
108
108
111
113
115
113
112
110
108
107
107
106
104
101
100
98
100
100
100
98
99
99
98
96
94
97
112
147
194
235
237
197
142
97
79
75
82
91
96
96
97
98
98
99
98
99
100
101
101
102
103
104
106
106
107
106
107
109
111
112
114
114
116
119
120
121
124
126
128
128
130
131
132
131
132
131
130
129
126
122
117
112
106
100
98
96
94
91
89
88
88
88
88
89
90
91
92
92
93
94
95
96
96
97
97
98
98
97
96
96
97
98
99
99
100
100
100
100
99
99
100
101
102
103
101
102
102
102
102
102
102
105
107
108
109
108
111
113
116
117
115
112
110
109
109
107
105
104
104
104
103
102
101
102
103
103
102
98
96
97
122
154
202
237
232
189
133
93
76
76
84
92
98
100
99
98
99
100
100
100
101
103
104
105
105
107
107
107
106
108
109
111
111
113
114
116
118
118
120
123
125
125
128
129
131
132
132
133
133
133
133
131
129
124
118
113
106
103
99
97
93
93
92
91
90
90
90
91
91
91
91
92
92
91
92
94
95
95
95
94
95
96
97
98
97
98
98
99
99
100
100
102
102
102
102
101
102
102
102
102
101
102
103
104
106
106
106
107
109
110
113
114
112
108
106
105
103
102
100
100
100
100
99
98
98
98
98
97
97
95
93
93
105
135
181
225
238
213
163
112
80
71
75
85
92
95
95
94
96
97
98
100
100
99
100
101
102
104
104
105
106
106
106
107
107
110
112
114
115
114
115
117
119
121
123
125
128
130
131
132
132
132
131
129
127
123
118
116
112
107
102
98
96
94
93
92
91
91
92
92
91
91
92
93
94
93
91
93
94
95
95
96
95
95
96
96
98
99
98
97
98
99
100
98
99
99
99
98
99
100
102
102
101
102
102
102
102
104
106
109
111
112
113
114
116
116
117
116
113
110
108
107
106
104
101
101
101
101
101
101
102
102
102
100
98
96
98
110
147
202
252
255
215
152
100
76
75
84
93
97
97
97
96
96
97
98
99
100
100
101
102
103
104
105
105
107
108
109
109
109
112
114
116
118
118
120
122
124
124
127
129
130
132
133
134
133
132
130
128
126
123
117
114
110
106
102
99
96
95
94
92
92
92
92
93
93
94
95
96
96
96
97
97
99
100
100
101
101
101
101
101
100
102
103
102
102
101
101
102
103
103
103
102
103
103
104
105
104
106
106
107
107
107
107
108
108
108
108
107
110
111
112
113
113
114
117
118
118
116
114
113
113
113
111
107
106
105
104
103
103
104
104
105
103
100
99
99
107
133
176
222
241
216
164
115
88
75
77
87
96
99
100
100
101
101
102
102
103
104
105
105
106
107
109
109
111
111
111
111
112
113
115
116
116
118
119
121
122
125
127
129
131
133
134
135
135
132
132
131
129
123
120
115
110
105
101
98
96
93
90
90
90
90
90
89
90
90
91
91
91
91
92
94
95
96
95
96
96
97
97
97
98
98
98
98
98
97
99
99
99
100
100
101
101
100
100
98
98
98
98
99
100
101
101
100
99
100
101
103
104
107
109
110
111
114
114
113
110
107
105
104
103
101
100
99
98
96
97
98
99
98
98
97
97
95
93
97
115
159
216
255
249
194
130
84
67
70
80
87
90
90
90
90
89
92
93
95
95
95
96
97
98
98
99
99
100
101
102
103
103
105
108
110
112
113
113
115
117
119
121
122
125
126
127
128
128
127
126
124
122
116
114
108
103
99
94
91
90
88
87
86
85
85
85
85
86
88
89
87
88
89
89
90
91
92
93
93
93
94
94
95
94
96
97
97
98
97
98
97
98
98
98
99
99
99
99
99
99
100
101
102
102
101
103
103
103
103
102
102
103
104
104
103
103
105
107
110
111
110
111
113
116
117
116
112
110
109
108
106
104
103
102
101
102
101
102
103
104
104
104
101
100
100
109
129
170
219
245
226
176
99
80
77
85
94
99
101
100
100
100
101
102
102
100
102
104
106
106
107
108
108
109
109
112
113
115
115
117
118
118
117
119
121
123
127
128
131
133
134
135
134
135
135
134
131
130
127
123
119
113
108
104
100
97
95
94
93
91
91
92
92
93
93
93
94
95
95
95
95
96
96
97
97
97
98
99
99
99
99
98
100
100
100
99
98
99
100
101
101
101
101
103
104
103
103
103
105
105
105
104
103
102
103
103
104
105
106
108
109
110
112
114
115
114
114
112
110
109
107
106
104
103
101
100
100
100
99
98
98
99
98
95
92
92
102
134
184
234
249
222
165
108
76
67
75
86
92
95
96
94
94
94
94
96
97
97
98
98
100
101
102
103
103
103
104
106
107
108
108
109
110
113
114
116
117
119
121
123
125
125
127
127
127
127
125
125
123
121
117
113
107
103
99
96
94
91
91
91
91
90
90
90
90
90
89
89
90
91
91
91
93
94
94
93
94
94
94
94
95
96
96
96
97
98
98
97
96
97
98
98
98
98
98
99
98
97
97
98
98
98
99
100
100
99
100
100
101
104
105
109
112
114
114
115
116
115
112
108
106
104
103
99
98
98
97
96
97
98
98
99
98
99
96
95
93
99
123
172
232
255
252
189
136
87
68
71
81
90
93
93
93
92
91
93
94
95
96
96
97
98
101
102
102
104
105
105
105
107
108
110
111
112
114
115
116
117
120
122
124
125
126
127
127
128
127
125
124
121
118
114
111
106
102
97
94
92
91
89
88
88
89
89
89
89
90
91
92
92
91
92
93
94
95
96
97
98
98
98
98
98
99
100
101
102
101
102
101
101
100
100
100
101
102
102
102
102
103
104
104
105
104
105
104
104
103
103
103
105
105
105
104
103
105
106
108
110
112
114
116
118
120
120
120
116
114
112
110
109
107
105
102
102
102
101
100
102
102
101
99
96
94
97
115
158
218
255
255
216
150
97
72
72
84
93
96
96
95
95
95
96
96
97
98
99
98
100
102
102
103
104
107
108
110
109
110
110
111
110
112
113
114
116
119
120
122
123
124
125
126
127
126
127
127
125
123
121
118
115
112
107
103
98
97
96
95
95
93
93
93
93
93
94
94
95
96
97
97
97
99
99
99
100
99
100
100
100
98
100
100
100
100
99
100
100
100
100
101
101
101
101
101
102
102
102
101
102
102
102
101
103
104
105
104
104
104
104
104
104
104
105
107
109
111
112
114
115
117
118
117
117
114
111
109
107
106
105
103
102
102
100
101
101
101
102
100
99
96
94
100
116
157
211
250
243
193
131
88
71
73
83
91
95
95
94
94
94
94
96
97
98
99
99
100
101
102
103
104
105
106
107
108
108
110
111
113
114
114
116
117
118
119
121
123
124
123
125
126
126
124
122
121
119
115
111
108
104
101
97
96
95
93
91
91
91
91
90
92
93
94
95
95
95
96
96
95
97
97
98
98
98
100
100
100
99
100
101
101
100
101
101
102
102
102
103
102
101
101
100
101
101
100
102
102
103
102
101
101
102
103
104
105
104
104
104
104
106
107
111
113
115
116
116
118
119
117
113
111
108
107
106
103
102
101
101
101
100
98
98
98
97
93
93
99
113
150
197
234
229
186
132
92
77
74
81
88
93
94
94
95
96
96
96
95
97
98
100
101
100
102
104
106
108
108
110
111
113
114
113
114
115
116
117
118
119
121
122
124
125
124
126
126
125
125
124
123
121
118
114
109
104
101
99
98
95
91
90
89
90
90
90
89
89
89
90
91
90
91
92
93
94
93
94
95
96
97
96
96
96
97
97
97
97
97
97
96
96
96
97
98
98
96
97
97
96
96
97
97
97
95
96
97
98
98
101
104
106
107
108
111
111
109
105
104
102
100
97
96
95
95
94
94
94
94
93
93
93
91
87
85
90
110
155
211
252
242
187
123
85
65
67
79
87
92
93
92
91
92
94
95
94
94
95
96
98
98
100
101
102
103
102
104
105
106
106
107
107
109
111
113
115
116
118
119
120
121
121
122
123
123
122
120
118
116
114
111
106
104
102
99
95
94
93
93
93
94
94
94
94
95
95
96
97
96
98
100
100
100
100
100
101
100
101
102
103
104
104
105
105
104
104
104
104
104
104
105
104
104
105
105
106
106
105
107
107
109
109
110
112
114
115
117
118
119
123
123
120
117
114
113
112
111
109
107
106
106
106
107
107
106
106
105
103
99
97
104
127
173
225
253
232
179
123
87
77
82
92
99
101
100
98
100
100
101
101
102
104
106
106
107
108
109
110
111
113
114
115
114
115
116
118
120
119
122
123
124
124
126
127
128
129
130
131
130
129
127
126
124
122
118
114
110
107
105
103
101
98
98
97
96
96
95
96
97
98
99
99
100
101
101
102
102
102
103
104
104
104
103
104
105
106
106
104
105
104
104
103
103
102
103
103
103
104
104
105
105
105
105
105
105
106
107
109
111
112
113
114
117
119
119
118
112
111
110
108
107
105
104
101
102
102
102
101
102
103
103
99
97
99
116
144
194
240
247
207
148
101
78
76
83
94
99
99
97
97
98
98
98
97
98
100
100
100
102
104
104
104
106
107
109
110
109
111
112
112
112
114
116
118
119
121
123
125
126
126
127
127
126
125
125
124
123
120
116
113
109
105
103
100
99
97
95
95
94
94
94
94
94
94
93
95
97
98
98
98
99
100
100
100
100
99
100
101
101
99
100
100
99
97
98
98
99
100
100
101
101
100
98
99
100
103
104
105
107
107
108
108
111
113
113
109
106
105
103
102
100
100
100
99
99
98
99
99
100
100
98
96
94
95
106
137
183
227
237
204
162
110
80
70
75
84
90
93
93
93
93
93
92
94
94
95
95
95
97
98
99
100
99
101
102
103
104
105
106
109
111
112
113
114
115
117
118
120
119
121
121
121
121
120
119
118
114
111
105
102
98
95
90
87
86
85
85
85
84
84
84
84
85
86
87
86
88
89
88
87
89
89
90
89
91
92
93
93
92
93
94
94
93
94
94
94
92
93
93
94
94
95
98
100
101
101
104
106
108
109
106
103
101
99
97
94
94
94
94
93
94
95
95
94
95
94
92
89
88
94
115
157
205
233
219
171
119
88
69
70
79
87
92
93
94
94
95
95
94
95
96
97
97
97
98
100
102
103
103
104
105
106
106
107
108
110
111
112
114
116
118
118
120
121
122
124
123
123
123
121
118
117
114
110
105
101
98
95
93
93
93
93
92
91
90
91
91
91
92
92
93
93
94
94
93
95
95
96
97
98
97
98
99
99
100
99
99
99
99
99
98
99
99
100
100
101
103
105
106
107
108
110
114
114
112
109
105
104
103
101
99
97
97
97
98
98
97
97
98
98
97
95
94
98
115
152
218
238
224
176
122
83
70
74
82
90
94
95
95
94
94
96
98
98
98
100
101
102
102
104
105
105
105
106
108
109
109
111
113
114
116
118
120
122
124
124
126
128
129
128
129
129
128
126
125
124
121
118
112
108
105
102
97
96
96
95
94
94
95
95
95
94
95
95
95
94
96
98
99
100
100
101
101
101
102
102
102
102
103
104
104
104
104
104
104
104
103
105
107
109
112
113
114
115
118
121
121
120
117
113
110
106
105
104
103
100
100
100
99
98
100
101
101
99
97
95
98
115
153
206
246
242
194
135
91
72
72
84
92
97
98
97
97
98
98
98
98
100
102
103
104
103
103
105
106
107
107
108
109
111
113
114
113
115
117
119
121
122
123
125
127
128
129
130
131
130
130
129
125
122
118
113
108
103
100
98
96
94
92
92
92
93
93
93
92
93
94
94
94
94
95
96
96
97
95
97
97
98
98
99
99
100
100
98
98
98
98
97
98
99
99
97
97
98
98
99
100
102
105
107
107
108
110
113
113
115
114
111
106
104
101
99
98
97
97
96
96
95
96
96
96
95
95
94
91
89
98
124
173
226
250
225
167
109
74
65
73
82
86
91
91
90
89
90
91
92
94
94
95
97
98
100
100
102
103
104
105
105
107
108
109
110
111
113
115
118
120
121
122
125
127
129
129
128
128
128
126
124
120
117
113
108
103
99
96
93
91
88
88
88
88
86
87
88
88
87
88
89
90
90
90
92
93
93
93
94
94
94
94
95
97
98
98
99
99
100
99
98
98
98
98
98
98
98
99
99
99
99
99
99
99
100
101
100
102
103
105
108
108
109
110
112
115
116
114
111
108
106
105
102
101
100
100
99
97
98
97
97
97
96
96
95
93
94
105
129
177
227
246
216
158
105
76
69
75
84
92
93
93
92
91
92
94
96
96
98
99
100
100
101
103
104
104
106
107
107
108
111
112
114
115
117
119
121
122
123
126
127
128
128
130
131
130
129
127
125
123
120
116
111
106
102
98
95
94
91
92
91
91
90
89
91
92
94
94
93
94
95
96
97
97
98
98
98
98
98
98
99
100
100
100
98
99
100
100
100
100
100
100
100
100
100
101
102
103
102
102
101
102
102
103
103
102
102
102
102
102
101
102
103
102
100
102
103
106
106
109
109
109
110
113
114
113
110
108
106
105
103
101
101
100
99
99
100
100
100
99
100
99
97
94
99
119
158
204
238
229
194
138
95
75
75
84
92
97
98
97
96
94
95
96
96
96
98
99
100
99
101
102
103
102
103
104
106
107
108
110
111
111
113
115
117
120
121
122
121
124
125
125
126
125
126
126
125
122
117
113
108
104
100
96
93
91
89
87
85
85
84
84
84
84
85
86
86
85
86
88
88
88
90
90
90
90
91
92
93
93
92
92
93
93
93
93
94
94
94
93
94
94
94
94
94
95
95
95
95
95
95
95
96
97
96
96
96
96
97
97
98
99
100
100
99
101
102
104
106
106
108
110
113
114
112
109
107
105
104
102
100
99
99
98
98
97
98
99
100
100
98
96
93
92
98
120
162
210
235
217
168
116
87
71
71
80
87
92
94
93
93
93
94
94
95
95
96
98
98
98
100
102
103
102
104
105
106
106
108
110
111
112
114
116
119
121
122
125
126
126
125
126
126
127
126
125
122
118
112
109
104
100
94
93
91
90
89
88
88
88
88
87
87
87
87
87
88
88
90
90
91
93
93
93
92
94
95
95
95
95
97
98
98
97
98
98
99
99
99
98
98
98
98
99
98
100
100
100
100
98
100
100
100
101
100
101
101
102
102
103
104
106
106
107
107
107
108
110
111
114
114
111
108
107
105
103
101
100
100
100
100
98
98
99
99
99
99
97
95
93
98
121
164
213
237
219
181
127
88
70
71
80
89
93
93
93
93
94
94
94
96
97
99
100
100
100
101
102
103
104
105
106
107
108
108
108
110
112
114
116
117
118
120
122
124
125
127
128
128
128
127
126
124
121
117
112
107
104
100
96
94
90
88
87
87
87
86
87
87
87
88
87
88
89
89
88
90
91
92
91
93
94
94
93
94
95
95
95
96
97
97
97
96
96
97
97
97
98
99
99
97
99
100
100
99
100
100
100
99
100
101
100
100
100
100
101
101
101
102
103
103
102
104
106
107
108
109
110
112
114
114
114
112
110
107
106
105
104
101
101
101
101
102
103
103
103
103
101
98
96
96
106
135
184
232
251
222
165
111
78
71
79
89
95
96
96
96
96
97
99
99
100
101
100
101
102
103
103
102
104
105
107
106
108
109
110
110
113
115
117
118
120
121
123
125
126
127
129
129
128
129
128
127
125
121
118
113
108
103
99
95
93
92
91
89
89
89
89
89
88
89
90
91
91
91
92
92
93
93
93
93
94
95
95
96
96
96
97
97
97
96
97
98
98
98
97
98
98
99
98
97
98
99
99
99
98
98
99
100
101
101
100
101
101
101
101
99
100
100
100
101
100
101
101
100
98
99
99
99
98
99
100
102
104
106
107
108
108
111
113
114
111
108
106
104
103
100
100
100
99
97
97
97
97
96
97
97
95
91
90
94
112
153
208
252
249
200
138
91
73
69
76
86
90
91
89
90
90
91
90
92
93
94
94
95
96
97
98
98
99
101
103
104
105
106
106
108
109
110
113
116
117
119
119
122
124
126
127
126
127
127
128
127
125
122
118
113
107
102
96
93
90
88
85
85
85
85
84
85
85
85
85
85
85
86
86
87
88
88
88
88
89
91
92
91
92
93
93
92
94
95
95
96
95
95
95
96
96
96
98
99
98
98
97
97
97
98
98
98
99
99
99
99
98
98
98
99
100
100
100
101
101
101
101
100
101
102
102
102
101
102
102
102
103
104
107
109
109
110
110
113
115
116
114
111
109
108
107
105
104
102
101
101
101
101
99
100
101
100
97
94
95
104
133
180
233
252
222
162
108
77
69
75
85
90
91
91
89
90
91
92
93
93
95
96
96
96
96
98
99
99
100
102
103
102
103
105
106
109
112
113
115
117
118
119
120
123
124
126
127
127
128
128
127
125
122
120
115
110
105
100
96
93
91
88
86
85
85
85
85
84
85
86
87
87
87
88
89
90
90
90
89
90
91
91
91
91
92
93
94
93
93
94
94
94
94
93
94
94
94
95
94
96
96
96
94
94
95
94
93
95
96
96
95
95
95
94
95
96
97
97
97
97
98
99
99
99
100
100
99
98
99
100
100
102
105
106
108
108
110
113
114
112
110
108
106
104
102
101
99
99
98
97
97
98
98
98
99
98
95
92
96
107
139
186
229
238
204
150
102
76
71
78
85
91
93
93
93
92
92
93
95
96
97
98
99
101
102
103
102
104
105
106
107
107
109
110
111
112
114
115
117
119
120
121
123
124
125
126
127
128
128
126
125
123
119
115
111
106
102
98
94
92
90
88
87
87
88
87
86
87
88
88
89
89
90
91
92
93
92
94
95
96
96
94
95
96
97
97
96
97
97
98
98
97
97
97
97
98
97
97
97
97
97
97
97
98
98
98
98
98
98
99
99
99
98
100
100
100
100
98
99
99
100
100
99
100
101
102
102
102
102
103
104
105
106
108
109
108
106
105
106
105
104
102
101
101
101
101
101
101
101
100
97
95
94
99
120
164
214
243
225
176
122
84
69
73
82
89
91
92
92
93
93
93
95
96
96
97
99
100
100
100
101
101
103
103
105
105
106
107
108
110
111
112
112
114
115
117
118
120
122
123
123
124
124
124
123
122
121
117
113
108
104
100
97
94
90
89
88
87
86
85
86
86
87
88
87
87
87
87
87
88
88
89
90
91
91
92
93
93
93
93
94
95
94
93
93
93
94
94
94
95
95
95
95
96
96
96
95
96
96
96
94
95
97
98
98
98
98
97
97
97
99
100
101
101
99
101
102
104
107
107
110
111
113
115
114
114
111
108
105
102
102
101
101
99
97
97
97
98
99
99
99
97
94
92
95
113
153
205
243
236
187
129
92
70
68
76
85
90
91
91
89
91
92
93
93
94
95
96
97
97
97
99
100
101
101
101
103
103
105
106
106
108
109
111
112
115
117
118
118
120
121
122
121
122
122
121
119
117
115
111
106
102
98
95
92
90
89
88
86
86
87
87
87
87
88
88
89
88
89
90
90
89
91
92
93
92
94
94
94
95
95
96
96
95
94
95
95
95
94
94
94
95
94
96
97
96
95
96
97
97
97
97
98
98
99
98
98
99
100
100
100
99
100
100
101
100
100
101
102
105
107
108
110
111
113
115
117
115
112
109
106
105
103
101
98
97
97
97
97
97
98
98
98
96
93
91
94
110
153
209
253
247
198
136
95
68
67
76
85
89
90
90
91
91
92
91
93
95
95
96
97
98
99
101
101
101
102
103
105
106
106
108
110
111
112
112
115
117
118
120
121
122
123
124
124
123
123
123
122
120
117
114
110
106
101
98
94
93
91
89
88
86
85
85
85
85
85
86
87
88
88
87
89
90
91
92
93
92
92
91
91
92
93
94
93
92
93
93
94
93
93
93
92
92
93
93
94
92
94
95
95
93
94
94
94
94
95
95
95
94
95
95
96
96
96
96
97
98
98
98
99
100
101
104
105
106
108
110
112
113
112
110
108
106
103
101
100
98
97
97
96
96
96
96
96
95
94
91
89
90
102
137
190
239
249
209
148
96
69
66
73
83
87
88
87
86
86
87
88
89
90
91
93
94
95
95
96
96
97
98
97
99
100
101
101
104
105
106
106
109
110
112
112
114
116
118
117
118
119
118
116
116
115
113
108
106
101
98
93
90
88
86
85
84
84
84
84
84
85
85
85
85
87
88
89
89
89
90
91
92
91
91
91
91
90
91
92
92
91
93
94
94
92
93
93
93
93
95
96
96
96
96
95
96
96
97
96
96
97
97
97
97
97
98
99
99
98
97
97
98
98
99
98
98
99
99
102
103
106
108
108
109
111
112
112
110
108
106
104
101
100
99
97
97
98
99
99
99
98
98
97
93
88
91
108
148
201
246
244
197
136
90
70
71
81
88
91
92
92
91
90
91
92
94
94
94
94
96
97
98
99
100
101
102
103
103
104
106
107
108
110
110
112
114
116
117
118
120
122
122
123
122
123
123
123
121
119
118
115
111
107
101
98
95
93
91
89
89
88
88
88
88
89
89
90
90
91
91
92
92
92
92
93
94
94
94
96
96
95
94
95
96
96
94
96
97
98
96
98
98
98
96
96
96
96
96
97
98
97
96
96
96
97
97
98
99
100
99
99
99
100
100
99
100
100
99
99
101
102
104
105
106
107
109
111
114
115
114
110
108
107
105
103
101
100
99
98
97
97
98
99
98
98
96
93
92
99
124
171
223
248
233
181
125
85
70
72
80
88
91
92
91
89
91
92
94
95
94
96
97
98
97
99
100
100
100
102
103
104
104
106
107
108
108
110
112
114
115
116
118
120
121
121
121
121
120
119
119
118
116
112
109
105
101
97
92
91
89
88
87
85
85
86
86
86
85
86
86
86
87
87
88
89
90
89
89
89
90
91
92
92
92
92
93
94
94
93
93
94
95
95
93
94
94
94
95
94
95
95
95
95
94
94
95
96
97
96
97
97
97
97
95
97
97
98
99
100
101
103
103
104
106
109
108
105
101
99
98
97
95
94
93
92
92
93
95
95
93
93
92
90
87
90
106
135
183
227
234
198
142
96
72
66
70
80
86
89
88
89
89
89
89
90
90
92
93
94
96
97
98
97
99
100
100
100
102
103
104
105
107
108
110
110
113
115
116
116
118
119
120
120
120
120
121
120
119
116
112
109
105
101
97
93
90
89
88
86
85
85
85
85
86
85
85
86
87
89
89
90
90
90
89
90
91
92
91
92
93
92
91
92
94
93
92
93
93
94
94
94
95
96
96
96
96
96
96
97
97
97
97
97
98
98
99
100
101
103
105
106
107
108
111
112
112
110
106
104
103
102
100
97
97
97
97
98
96
97
97
97
95
92
89
89
99
127
173
221
240
221
171
117
82
68
71
80
87
91
93
93
92
92
92
93
94
95
95
95
96
97
98
99
99
100
101
102
102
104
104
105
107
107
110
111
113
113
114
115
117
116
118
119
119
118
118
117
115
111
109
106
104
100
97
94
92
89
88
88
87
87
87
89
90
90
90
90
90
91
90
90
90
91
92
93
93
92
93
94
94
94
93
94
95
95
95
93
94
94
95
95
94
95
96
97
97
96
97
98
98
97
96
97
97
98
99
98
100
103
105
106
107
108
110
110
108
106
103
102
101
99
98
96
96
96
96
96
95
96
95
94
91
89
91
103
135
186
232
241
203
147
99
72
66
74
83
89
90
91
91
91
89
90
92
93
93
94
95
96
96
97
98
98
99
99
100
102
103
104
105
107
108
107
110
112
115
116
117
119
119
120
120
119
119
119
118
116
114
112
108
103
100
97
94
92
91
90
90
88
89
89
88
87
88
89
90
90
90
90
91
91
92
92
93
94
95
95
95
95
96
96
96
96
96
97
97
97
96
96
96
96
96
95
96
96
94
94
94
94
94
94
96
97
97
96
97
97
99
101
103
105
106
107
109
110
110
107
103
101
100
99
97
97
97
97
97
96
97
97
98
98
95
92
90
92
107
143
195
239
244
208
149
98
71
66
74
82
87
89
92
96
100
103
106
107
107
107
107
107
108
109
109
110
111
111
111
111
111
111
112
114
115
115
117
118
118
119
119
121
122
123
123
122
123
122
121
120
118
115
111
107
102
98
94
91
88
86
85
84
83
83
82
82
81
83
83
84
83
83
84
85
86
87
87
88
88
88
89
90
90
89
90
90
90
88
89
89
88
86
88
88
88
87
87
88
88
89
90
90
90
89
88
89
90
90
90
91
90
90
89
91
92
92
91
94
97
99
99
101
103
106
107
106
103
100
98
97
94
93
92
91
91
90
91
91
92
91
90
89
85
83
87
107
151
207
247
238
185
95
70
62
67
76
82
85
85
83
84
84
85
85
86
87
87
86
88
90
91
92
93
94
94
94
96
98
100
100
101
103
104
105
107
110
112
113
114
115
116
116
117
116
115
115
113
111
108
104
101
99
95
92
88
86
85
84
83
81
82
83
83
84
83
85
85
87
88
87
88
88
89
89
89
90
91
92
92
90
91
92
92
92
91
92
92
93
93
93
94
94
94
94
93
93
94
94
95
95
95
96
96
96
96
96
96
96
95
96
96
96
94
96
98
100
101
104
105
106
106
110
111
110
106
104
102
101
98
97
97
97
95
96
96
96
95
96
96
94
91
88
94
118
164
218
252
236
181
120
81
68
71
80
87
89
90
88
90
90
91
90
92
93
94
94
96
98
99
99
100
101
102
104
105
106
108
109
110
111
112
113
114
116
118
120
121
122
122
122
123
123
122
121
119
116
115
112
109
105
100
95
93
91
88
88
88
88
87
87
88
88
87
87
88
89
90
91
92
93
94
93
94
95
95
95
96
97
97
96
97
97
97
96
97
98
98
97
98
99
99
99
97
98
98
99
100
99
100
101
102
101
100
100
100
102
103
102
102
102
102
101
100
101
102
103
104
105
107
110
112
112
113
114
115
114
112
108
106
104
102
101
99
99
99
99
99
99
98
99
99
97
94
92
98
122
167
218
246
229
177
103
78
70
76
84
89
90
91
90
89
90
92
93
93
94
95
97
98
99
100
101
101
100
100
102
103
103
104
106
107
107
109
111
112
115
116
118
120
120
120
118
120
121
121
120
117
115
112
109
104
99
96
93
90
88
85
85
85
85
84
84
85
85
87
88
88
89
89
89
89
89
90
90
91
91
90
90
91
92
92
92
91
91
91
90
90
90
92
93
93
92
91
92
92
92
92
91
93
95
95
94
94
94
95
96
94
95
96
96
95
97
98
98
99
101
103
106
108
110
110
107
103
101
99
98
96
95
95
95
94
95
95
94
92
93
92
89
85
89
107
145
193
230
232
195
142
95
72
66
72
80
86
89
90
89
89
90
90
89
90
91
92
93
94
96
97
97
97
98
99
100
101
102
103
104
106
107
109
111
113
114
113
115
118
120
121
120
120
119
118
116
113
110
107
104
99
94
90
88
86
84
82
82
82
82
81
83
83
83
82
84
84
85
85
87
88
90
89
89
90
90
90
89
91
91
91
89
91
92
92
91
91
92
93
93
93
94
93
93
93
93
93
94
95
95
94
96
97
99
100
101
101
102
104
106
107
107
104
102
100
98
97
96
96
96
95
96
95
95
95
94
95
93
90
88
94
119
163
212
235
223
177
123
84
67
67
77
83
88
89
89
89
90
90
90
90
91
92
94
96
97
97
98
98
99
100
101
103
103
104
106
107
108
108
110
112
113
114
117
119
120
121
121
121
120
119
118
117
114
110
106
101
96
92
90
89
86
85
85
84
84
84
85
85
85
84
85
85
87
88
88
90
90
91
91
92
92
93
93
94
94
93
93
94
95
96
95
96
96
96
94
95
96
97
97
97
97
97
97
96
95
96
98
99
100
101
103
104
105
105
106
108
109
107
105
102
101
100
99
98
96
96
96
96
95
95
94
94
93
90
90
97
120
166
209
245
234
182
124
81
64
66
75
84
89
89
89
89
88
87
88
89
90
91
93
95
96
97
97
99
100
101
102
102
104
105
106
107
106
109
111
113
115
116
117
118
119
121
121
122
122
121
120
118
117
114
109
104
98
95
92
90
88
85
85
85
85
85
84
84
85
85
85
83
85
86
87
88
88
89
90
91
91
90
91
92
93
94
92
93
93
94
94
94
94
94
94
93
94
94
94
93
93
94
94
94
96
98
100
103
107
111
112
112
114
115
116
116
116
114
112
109
108
107
105
102
102
102
101
99
101
101
101
99
99
96
94
100
129
168
224
255
241
186
124
81
67
71
79
86
89
89
89
89
89
90
91
92
92
93
94
95
96
98
99
100
101
101
101
102
104
105
106
107
109
110
112
114
115
118
120
121
122
123
124
124
123
122
120
119
113
109
102
97
93
89
86
84
83
82
80
80
79
79
78
79
80
81
80
81
81
82
82
84
84
85
85
85
86
87
87
87
88
89
89
89
89
89
89
90
89
90
91
91
91
90
90
89
89
89
89
90
91
91
91
90
91
92
95
97
98
100
101
103
105
105
104
101
99
97
95
94
93
92
91
89
89
90
91
92
91
90
89
86
85
89
108
151
205
243
234
182
122
86
64
64
73
82
85
85
85
85
86
87
86
87
88
89
89
91
93
94
94
94
95
97
99
99
101
103
104
106
107
109
111
112
114
116
118
119
120
122
123
123
122
122
120
117
113
108
104
100
95
91
88
86
85
83
81
81
81
81
82
82
82
83
83
83
83
84
85
86
87
88
87
89
90
91
92
92
93
93
93
92
91
93
93
93
93
91
92
92
92
92
91
93
93
94
94
92
92
92
92
92
91
92
93
94
95
93
95
97
98
99
101
102
103
103
107
108
107
104
102
100
99
97
96
95
95
93
94
95
95
94
95
95
94
90
89
91
104
135
183
225
231
195
141
103
74
66
72
82
87
89
89
90
91
92
91
92
93
94
93
95
96
97
98
99
101
101
101
103
105
107
108
110
111
113
115
117
119
121
123
125
126
127
128
129
129
129
129
128
125
119
114
109
103
99
96
93
91
89
87
85
84
84
85
85
85
85
86
87
86
85
87
89
90
90
91
91
92
91
92
93
94
93
95
95
95
93
94
94
95
95
94
94
94
94
92
93
94
95
94
95
95
94
94
95
95
96
96
95
96
96
97
97
96
99
101
103
104
104
106
108
110
109
106
104
102
101
101
98
97
96
96
96
95
96
97
97
97
94
93
91
91
98
123
168
216
236
213
172
118
82
67
69
77
85
88
89
89
88
89
90
92
93
93
94
95
96
97
96
98
100
100
100
102
103
103
104
105
107
109
110
112
114
116
117
119
121
123
123
124
125
124
122
120
117
113
107
102
99
95
91
87
85
84
82
81
81
81
81
82
83
83
83
83
84
85
86
85
86
87
87
86
87
88
88
89
90
91
91
91
91
92
93
93
93
93
93
93
93
94
95
94
95
94
95
96
96
96
95
96
96
96
96
96
97
98
98
98
97
98
98
98
98
98
99
100
101
104
105
107
107
108
109
111
111
108
104
103
103
102
99
98
97
96
95
96
97
97
97
97
97
95
91
91
100
129
175
227
248
221
177
119
82
68
71
81
88
91
92
92
91
92
93
94
95
95
97
97
98
99
99
101
102
103
103
103
105
106
108
109
109
112
114
116
117
118
120
122
123
125
125
127
128
128
128
126
124
120
115
111
105
103
99
95
91
88
88
87
87
87
85
86
86
86
87
86
87
87
89
88
88
89
90
90
90
90
90
90
90
91
92
92
91
92
93
93
92
93
94
93
91
92
92
92
92
93
93
93
92
93
94
94
93
93
93
93
92
93
95
95
94
95
95
95
94
96
97
98
97
97
97
98
96
98
98
98
96
97
98
99
100
102
104
105
105
107
110
111
110
106
103
101
100
99
97
97
97
97
97
97
97
98
98
97
96
95
93
92
99
124
174
219
255
244
189
128
85
67
73
81
88
91
91
89
90
90
91
91
92
93
94
94
96
97
98
98
99
101
102
101
103
103
104
105
108
110
112
112
115
117
120
121
123
125
126
127
127
127
126
126
125
122
119
114
108
102
96
92
89
88
87
85
85
84
83
82
80
82
82
83
84
84
84
84
85
85
84
85
86
87
89
88
89
90
90
90
89
90
91
92
92
91
91
91
92
92
91
92
92
92
93
93
94
95
95
95
94
96
96
96
95
95
96
96
95
95
95
96
95
95
96
96
95
96
97
97
97
98
98
99
99
97
98
97
97
95
97
98
98
98
100
102
103
103
104
105
107
109
110
110
109
106
104
103
102
101
101
100
98
99
99
99
99
98
99
99
97
93
91
98
117
161
217
254
243
190
128
84
66
70
80
88
91
91
91
91
91
92
92
93
94
94
95
95
96
97
98
99
98
100
101
102
103
103
105
106
108
111
111
113
114
115
116
119
120
121
122
122
122
121
120
118
116
112
108
104
99
94
90
88
85
83
82
81
80
80
80
81
82
82
82
83
83
84
84
85
86
86
86
87
88
88
88
89
90
90
89
89
91
91
89
90
91
91
91
93
94
94
92
92
93
93
92
92
92
93
93
93
94
95
95
94
94
95
95
96
96
96
97
97
97
97
98
98
98
98
97
97
99
99
99
99
99
99
100
100
99
102
104
107
109
110
110
110
109
109
111
112
112
110
108
107
106
105
103
102
102
101
102
103
103
103
106
108
108
105
103
102
110
130
177
234
255
245
187
128
89
76
78
86
94
96
95
94
93
94
94
95
95
95
95
96
97
97
97
98
98
99
100
100
101
102
103
104
105
106
107
108
109
111
113
116
117
118
120
121
121
121
119
118
118
116
113
108
103
98
93
89
85
82
80
79
78
76
76
75
75
75
75
76
76
77
76
78
80
81
80
81
81
81
80
82
82
83
82
84
84
85
84
85
85
85
84
86
86
85
85
86
87
87
88
89
90
89
88
88
89
89
87
88
89
89
89
90
91
91
90
90
91
91
91
91
92
93
92
92
93
93
94
94
94
95
95
95
95
96
96
96
97
98
99
99
99
100
102
104
106
104
103
102
101
100
99
99
99
98
98
97
97
98
98
98
97
97
94
92
98
144
174
224
247
220
167
113
79
67
73
82
88
90
90
91
91
91
91
92
93
94
95
96
96
96
98
99
100
99
101
102
103
104
106
108
110
113
113
115
117
118
120
121
124
126
128
128
127
127
127
127
125
123
121
116
112
107
101
98
96
93
91
88
88
87
87
87
86
88
88
89
89
88
89
89
89
90
90
92
93
93
94
94
96
97
97
97
96
97
97
97
97
97
98
99
99
98
96
96
97
97
96
97
98
98
98
98
97
97
97
97
98
99
99
97
98
98
97
97
98
98
97
97
96
97
97
96
98
99
100
100
101
102
101
101
101
102
104
104
105
104
103
103
101
101
100
99
98
97
99
99
99
99
99
99
97
94
93
104
134
182
229
246
223
173
120
84
71
73
83
89
93
94
93
94
94
94
94
94
95
96
97
98
98
99
100
99
99
100
102
103
104
105
105
107
109
110
111
113
114
116
117
118
120
121
122
120
121
120
119
118
117
114
109
105
101
98
94
90
87
85
84
84
84
83
83
82
82
82
82
83
84
84
83
85
85
87
87
88
88
88
88
88
90
91
92
92
93
93
93
92
93
92
92
91
91
91
92
92
93
93
93
92
92
94
94
94
93
94
94
95
95
96
97
97
96
95
97
98
98
97
97
97
99
100
100
100
101
102
103
105
105
104
102
100
99
99
99
97
95
95
94
95
96
95
95
95
94
89
87
90
106
143
196
232
242
206
149
98
72
67
73
81
87
88
87
88
89
89
89
91
92
92
92
94
95
96
97
97
99
100
101
102
102
104
104
106
106
105
107
110
112
114
115
117
119
121
122
122
123
123
123
122
121
119
116
112
107
101
97
94
91
89
87
87
85
85
84
84
85
86
86
86
86
86
87
87
87
87
88
89
90
90
91
92
92
93
93
94
95
95
96
94
94
94
94
93
94
94
94
92
92
93
92
91
91
91
91
91
92
93
93
93
93
94
94
94
95
96
96
95
96
97
98
100
102
104
104
106
108
110
110
108
106
103
101
100
100
98
96
94
94
95
95
93
94
95
94
91
90
90
100
129
180
235
255
237
180
120
81
67
72
82
89
90
90
89
89
90
91
91
92
94
95
96
96
97
97
99
100
100
101
101
102
103
103
106
107
109
110
113
114
116
117
116
119
121
122
121
122
122
121
119
117
115
111
106
103
99
95
91
88
87
86
85
83
84
84
84
83
84
85
85
85
86
87
87
87
88
89
90
90
90
90
91
92
92
92
93
94
93
94
93
95
96
97
96
95
96
95
95
95
95
96
97
97
97
96
96
96
96
96
96
97
97
97
98
97
99
99
99
99
99
99
100
101
103
105
107
108
110
112
114
114
112
108
105
104
103
102
100
98
98
98
97
96
97
97
97
93
91
91
98
121
168
219
246
223
181
123
82
65
68
78
85
86
87
88
88
86
87
88
89
90
93
94
95
94
96
97
98
99
100
102
103
102
104
105
107
107
109
110
111
111
114
117
119
120
122
124
125
124
125
124
123
119
117
113
108
102
98
94
91
89
86
85
82
81
81
80
81
81
82
82
82
84
85
86
85
85
86
87
87
87
87
88
89
90
90
89
90
90
90
89
90
90
90
88
89
89
89
88
89
90
90
89
91
92
93
92
94
94
94
93
94
95
95
95
97
99
101
101
103
106
108
107
105
103
101
100
99
97
96
95
93
93
93
94
95
95
95
94
92
90
89
94
113
153
201
233
223
177
124
86
68
67
76
83
87
87
86
87
87
89
89
89
90
92
93
94
94
95
97
98
99
99
100
102
103
104
105
107
109
110
112
112
114
116
118
120
123
124
124
124
123
124
123
120
115
111
106
101
97
94
90
87
84
84
83
83
81
82
82
82
81
81
82
82
81
83
84
85
85
87
88
89
89
88
88
89
91
92
92
94
96
97
98
98
100
100
100
100
98
98
98
99
100
99
100
100
99
99
98
98
98
99
99
100
102
104
106
106
109
112
113
112
109
106
104
102
99
97
95
94
93
93
92
93
93
94
93
91
89
87
88
104
140
191
226
235
168
122
82
63
63
72
79
83
84
84
85
86
86
87
88
89
89
91
93
94
94
95
97
97
97
98
99
100
101
103
105
106
107
109
110
112
113
116
118
120
120
121
122
121
121
121
120
117
114
108
103
98
94
89
87
86
84
82
82
82
82
81
82
81
82
82
84
85
85
85
86
87
87
87
87
88
89
90
91
90
90
91
91
91
90
91
91
91
92
92
93
93
93
92
93
93
93
93
93
93
94
94
94
93
93
93
92
91
93
95
97
100
102
102
102
103
105
107
107
104
103
101
100
98
95
94
93
93
92
93
94
94
93
93
92
90
87
94
116
160
213
245
230
179
121
80
65
67
77
85
87
88
87
88
88
89
91
92
93
93
93
95
96
97
98
98
100
101
102
102
102
104
105
107
109
109
111
112
114
116
117
120
121
123
123
122
123
124
123
122
119
116
111
106
101
96
92
89
86
83
83
82
81
79
80
80
80
80
82
82
82
81
83
83
84
83
85
86
87
86
88
89
89
88
90
90
90
89
90
90
90
89
91
91
91
90
91
91
91
90
92
92
91
90
91
92
93
92
92
93
93
92
91
92
93
93
93
94
94
93
94
95
98
99
101
102
103
105
106
105
103
100
97
97
97
95
94
92
93
93
93
92
92
92
93
92
90
88
90
104
138
189
237
247
218
159
103
71
64
72
85
86
87
87
87
86
87
88
88
88
90
92
93
93
94
95
97
98
103
107
111
111
112
112
112
113
115
116
117
117
120
122
124
125
127
129
130
131
130
129
127
124
121
115
111
106
101
97
92
90
87
86
85
84
84
84
84
83
83
84
84
85
85
85
85
86
86
86
87
87
88
89
89
89
89
90
90
89
90
90
90
91
90
90
90
90
90
88
89
90
90
90
90
91
91
91
92
92
92
93
93
91
92
92
92
92
93
93
93
92
93
93
93
93
93
94
95
93
95
96
96
94
95
96
97
98
102
104
105
105
107
108
109
106
104
102
100
98
98
96
95
93
93
93
92
92
92
93
93
91
89
88
90
105
137
190
240
247
209
148
95
67
64
70
79
83
86
87
87
86
88
89
90
91
91
93
94
95
96
97
98
100
101
101
102
103
104
105
106
107
109
111
113
114
117
119
120
122
123
125
127
128
128
127
126
125
121
116
112
107
102
97
94
90
86
85
84
83
82
82
83
83
83
84
85
85
85
86
86
86
86
87
88
89
90
89
90
91
91
91
90
91
92
92
92
92
93
94
95
94
95
95
95
95
95
96
96
96
96
95
96
96
95
96
95
96
96
97
97
95
97
97
97
97
97
98
97
97
97
97
98
99
99
99
99
100
100
100
99
99
100
102
103
102
103
104
105
108
109
110
106
105
103
103
102
100
98
97
97
97
96
98
99
99
98
98
96
94
96
110
147
195
235
235
195
140
95
70
67
74
83
87
89
90
90
88
90
91
93
94
94
96
97
99
100
100
101
102
102
103
104
105
106
106
106
107
109
111
113
114
116
117
118
121
121
123
125
126
126
125
125
123
121
117
111
106
101
96
91
88
86
84
82
82
81
81
82
83
82
82
82
82
82
82
83
83
84
85
84
85
86
86
86
87
88
89
88
89
89
89
88
88
89
90
89
90
90
90
89
90
90
90
89
91
91
91
89
90
91
92
91
92
93
92
91
93
94
94
93
94
95
94
93
94
94
94
94
94
94
95
95
96
97
98
98
99
101
103
104
105
105
103
101
100
99
98
96
96
96
96
96
96
97
98
97
96
93
90
90
98
125
178
237
255
246
186
122
78
61
65
74
83
85
86
86
85
86
86
87
88
88
89
90
90
88
90
91
92
91
93
94
95
96
98
100
101
102
104
107
109
109
112
114
115
116
119
120
120
120
121
121
119
115
112
107
104
99
93
90
86
83
81
81
80
81
81
79
79
79
79
80
80
81
81
82
83
83
85
85
85
84
84
85
86
87
87
86
87
88
88
88
87
88
88
89
89
89
90
90
90
89
90
90
91
91
90
91
91
92
91
90
92
92
91
92
91
92
93
94
94
95
95
95
95
93
93
93
93
92
93
94
95
96
97
97
97
97
99
101
102
102
101
99
98
97
96
95
94
94
94
94
93
93
93
94
93
93
91
89
88
100
134
187
239
254
229
168
109
73
64
71
80
85
88
88
87
87
87
88
88
91
93
93
93
94
94
95
95
97
98
99
100
100
102
103
104
104
105
106
108
109
111
113
115
118
120
121
123
123
124
125
123
123
120
117
112
107
103
98
94
89
86
85
84
84
82
82
83
83
82
84
84
85
85
87
87
87
87
88
88
89
88
89
90
89
89
91
92
92
92
92
92
92
92
93
94
95
94
94
95
95
95
94
95
95
95
95
93
94
95
96
96
95
96
96
96
97
96
96
96
96
95
95
96
97
96
96
95
97
98
98
98
98
99
101
102
102
102
102
102
103
103
106
108
109
108
105
104
102
102
102
100
99
99
98
98
99
99
99
99
98
96
94
92
100
129
178
232
255
229
170
113
78
68
72
81
87
89
90
89
88
89
89
90
90
92
93
94
94
96
97
97
96
99
100
102
102
103
105
106
107
107
109
110
111
113
113
115
117
119
120
121
123
123
123
122
121
119
117
114
108
104
99
95
91
88
86
85
83
83
81
82
82
82
83
83
84
84
85
85
85
86
87
87
86
87
88
89
89
88
89
89
90
90
89
91
91
91
91
90
90
90
90
89
90
91
90
89
90
91
90
89
90
91
92
91
92
93
92
92
93
93
93
93
94
94
93
93
94
94
93
95
95
94
93
93
94
94
94
96
97
97
96
97
98
99
100
101
103
103
101
99
99
98
97
95
94
94
94
94
94
95
95
95
97
96
93
89
89
99
128
176
227
247
220
176
118
80
66
68
77
84
87
88
88
87
88
88
89
90
90
92
92
93
94
93
94
96
97
98
98
99
100
101
102
104
105
106
107
109
111
112
113
115
117
116
117
118
119
119
116
115
113
109
105
102
99
95
90
88
86
84
82
82
81
80
80
80
81
82
83
83
84
85
85
85
85
86
87
87
88
88
89
90
91
91
90
91
92
92
92
90
91
91
92
92
91
91
90
90
91
92
93
94
93
91
92
92
93
93
92
93
93
94
94
92
93
93
93
93
94
95
96
96
96
95
95
96
96
97
98
97
98
97
97
98
99
99
101
104
105
104
103
102
100
98
98
98
96
94
95
95
95
95
96
96
96
94
92
89
90
102
140
194
243
249
209
147
94
68
65
73
82
86
87
88
88
86
88
89
89
89
90
91
91
91
94
95
96
97
98
99
100
100
102
103
105
105
107
108
110
110
113
114
116
117
118
120
121
121
121
120
120
119
118
113
110
106
102
98
93
90
87
85
84
82
82
82
81
81
81
82
83
84
83
84
85
85
85
86
86
85
86
86
87
87
87
88
88
88
87
89
90
89
88
89
89
89
89
90
90
89
90
90
91
92
91
92
93
94
94
93
95
95
95
95
94
95
95
95
94
95
96
96
97
96
96
97
98
98
96
98
99
100
101
101
102
103
103
104
105
107
108
107
104
102
101
100
99
97
96
96
96
96
96
96
97
97
97
94
91
90
97
121
167
222
250
241
190
128
71
66
72
80
86
88
87
85
86
87
87
87
89
90
91
91
93
94
95
95
96
97
98
97
99
101
101
102
104
106
107
108
110
111
113
114
115
117
118
118
119
119
117
116
116
114
111
110
106
102
98
94
91
87
84
84
84
83
81
82
82
82
81
82
83
84
84
86
87
87
87
88
89
89
89
90
91
92
91
90
91
91
91
91
91
92
93
93
93
94
95
95
94
93
94
94
95
95
94
94
93
94
93
94
94
94
94
93
94
95
95
95
95
95
94
95
97
98
98
100
102
102
102
105
107
107
103
101
100
100
99
98
96
95
93
94
94
95
95
94
95
94
91
88
87
99
130
178
216
239
218
167
113
78
64
67
77
83
86
86
86
87
88
88
89
90
91
91
91
93
94
95
96
96
98
99
100
101
101
103
105
106
107
107
109
110
112
113
115
117
119
121
121
122
122
121
120
117
115
112
106
102
99
95
90
86
84
82
80
79
80
81
80
79
80
81
81
82
82
82
81
81
81
82
83
83
83
84
85
86
87
88
89
90
89
90
91
91
90
90
90
90
89
88
89
89
89
89
88
90
90
90
89
88
89
90
91
91
91
92
93
94
96
97
98
98
99
100
102
104
104
102
99
98
96
95
93
91
91
91
91
91
90
91
91
92
91
87
85
86
100
137
186
229
232
192
136
88
65
61
74
79
83
83
82
81
83
84
86
85
86
87
88
88
90
92
93
92
95
96
97
97
98
100
101
102
104
105
107
107
110
112
114
115
117
118
119
118
120
119
118
116
115
112
109
104
101
97
94
89
87
85
84
82
81
81
81
81
82
82
83
83
84
85
85
85
86
87
88
87
87
88
89
89
89
90
90
90
90
89
91
92
93
93
93
94
94
95
94
93
93
94
94
94
94
94
93
93
93
93
93
94
94
93
94
94
93
93
94
94
96
99
101
102
103
105
106
105
103
100
100
100
98
95
94
92
92
92
93
94
94
94
93
91
89
87
94
118
164
217
247
231
177
119
79
64
67
76
83
85
86
86
85
86
86
88
90
91
92
91
94
95
96
97
96
97
99
100
101
101
102
104
105
107
107
109
110
112
113
114
117
118
119
119
121
121
121
120
118
117
115
112
107
102
99
95
92
89
85
84
83
83
81
82
81
81
80
81
82
83
82
83
84
85
85
86
88
88
87
88
89
89
88
89
90
90
91
91
91
90
90
91
91
91
91
92
92
91
92
92
92
90
91
91
91
91
92
94
94
94
94
94
94
93
93
94
96
98
101
104
106
105
107
108
107
104
102
101
99
96
96
95
94
92
92
92
93
93
93
94
93
91
88
91
108
147
201
242
246
208
148
96
68
64
71
80
85
85
86
86
87
87
89
90
91
92
92
93
94
95
97
98
99
99
100
101
102
101
103
105
107
107
109
111
111
111
113
115
117
117
118
119
119
118
119
119
118
115
111
108
102
98
93
90
88
87
85
83
83
83
83
83
83
84
85
85
86
86
87
88
88
88
89
89
89
90
89
90
91
92
92
92
93
93
93
93
92
92
92
93
92
92
93
92
92
92
91
92
92
92
91
91
92
93
94
93
95
94
94
94
94
95
97
99
100
102
103
104
105
107
106
103
99
97
96
95
94
93
93
91
91
91
91
90
91
92
90
86
85
90
107
145
185
228
234
196
141
93
68
62
66
77
83
86
87
86
87
88
89
89
89
92
93
94
94
95
96
97
99
98
99
100
101
102
103
105
106
108
110
111
112
114
114
115
118
119
121
122
122
122
121
119
117
114
111
107
102
97
92
87
85
83
81
80
80
79
79
78
80
80
81
80
81
81
81
80
81
83
83
82
83
84
84
84
86
87
88
87
88
87
87
88
88
89
87
88
88
88
87
88
89
89
87
88
89
89
87
88
89
88
88
90
91
92
93
94
95
97
98
100
102
104
103
103
101
98
95
96
94
93
90
89
89
89
88
89
90
90
89
88
86
85
90
110
151
200
231
231
191
135
88
64
60
70
77
82
84
83
83
84
85
85
85
86
88
89
90
92
